#Spectra: 1
Emin______Emax       6.970000000000000E+02  7.370000000000000E+02
EminPole__EmaxPole   7.059097083936200E+02  7.293392335845281E+02
dE________Gamma      2.000000000000000E-02  1.000000000000000E-01
Energy               Re[0]                  Im[0]                
 6.970000000000E+02  3.524425544947350E-03  8.504003932870193E-05
 6.970200000000E+02  3.842135399108466E-03  8.662448570792122E-05
 6.970400000000E+02  4.140323692192294E-03  8.813209253371770E-05
 6.970600000000E+02  4.410740067537661E-03  8.952863880788674E-05
 6.970800000000E+02  4.650105895644179E-03  9.080038910585996E-05
 6.971000000000E+02  4.858939767565004E-03  9.194927629546560E-05
 6.971200000000E+02  5.039935727288407E-03  9.298622713800364E-05
 6.971400000000E+02  5.196658762389313E-03  9.392578710791939E-05
 6.971600000000E+02  5.332748112073604E-03  9.478283431865694E-05
 6.971800000000E+02  5.451527487951352E-03  9.557096927199525E-05
 6.972000000000E+02  5.555865087321581E-03  9.630193407514327E-05
 6.972200000000E+02  5.648162552331621E-03  9.698556352630862E-05
 6.972400000000E+02  5.730399924912000E-03  9.762996752878501E-05
 6.972600000000E+02  5.804198366979037E-03  9.824178724710648E-05
 6.972800000000E+02  5.870882859636481E-03  9.882645163000026E-05
 6.973000000000E+02  5.931537819467626E-03  9.938840511576071E-05
 6.973200000000E+02  5.987053719376295E-03  9.993129856493509E-05
 6.973400000000E+02  6.038165039704203E-03  1.004581447013092E-04
 6.973600000000E+02  6.085480693322712E-03  1.009714427249143E-04
 6.973800000000E+02  6.129508239477676E-03  1.014732774760851E-04
 6.974000000000E+02  6.170673105905145E-03  1.019653981454412E-04
 6.974200000000E+02  6.209333855259016E-03  1.024492807752592E-04
 6.974400000000E+02  6.245794338266717E-03  1.029261780050248E-04
 6.974600000000E+02  6.280313402677609E-03  1.033971588036515E-04
 6.974800000000E+02  6.313112682729854E-03  1.038631403392059E-04
 6.975000000000E+02  6.344382878101734E-03  1.043249136623701E-04
 6.975200000000E+02  6.374288840360348E-03  1.047831645069712E-04
 6.975400000000E+02  6.402973714250703E-03  1.052384902211401E-04
 6.975600000000E+02  6.430562326564086E-03  1.056914136188051E-04
 6.975800000000E+02  6.457163973219764E-03  1.061423943686035E-04
 6.976000000000E+02  6.482874722720479E-03  1.065918384041908E-04
 6.976200000000E+02  6.507779329052652E-03  1.070401057370888E-04
 6.976400000000E+02  6.531952827663647E-03  1.074875169735569E-04
 6.976600000000E+02  6.555461873036942E-03  1.079343587750497E-04
 6.976800000000E+02  6.578365864591626E-03  1.083808884535068E-04
 6.977000000000E+02  6.600717898389113E-03  1.088273378548538E-04
 6.977200000000E+02  6.622565574854240E-03  1.092739166543020E-04
 6.977400000000E+02  6.643951686965027E-03  1.097208151634700E-04
 6.977600000000E+02  6.664914808796763E-03  1.101682067306519E-04
 6.977800000000E+02  6.685489800661502E-03  1.106162498006349E-04
 6.978000000000E+02  6.705708244163813E-03  1.110650896885216E-04
 6.978200000000E+02  6.725598818143917E-03  1.115148601123902E-04
 6.978400000000E+02  6.745187624579733E-03  1.119656845218643E-04
 6.978600000000E+02  6.764498471978828E-03  1.124176772533546E-04
 6.978800000000E+02  6.783553122534924E-03  1.128709445375998E-04
 6.979000000000E+02  6.802371508296591E-03  1.133255853809366E-04
 6.979200000000E+02  6.820971920752155E-03  1.137816923382762E-04
 6.979400000000E+02  6.839371177539483E-03  1.142393521929267E-04
 6.979600000000E+02  6.857584769413953E-03  1.146986465560453E-04
 6.979800000000E+02  6.875626990130621E-03  1.151596523965587E-04
 6.980000000000E+02  6.893511051498518E-03  1.156224425107609E-04
 6.980200000000E+02  6.911249185532784E-03  1.160870859394408E-04
 6.980400000000E+02  6.928852735351469E-03  1.165536483392557E-04
 6.980600000000E+02  6.946332236229293E-03  1.170221923141083E-04
 6.980800000000E+02  6.963697488023167E-03  1.174927777114742E-04
 6.981000000000E+02  6.980957620016467E-03  1.179654618879524E-04
 6.981200000000E+02  6.998121149087538E-03  1.184402999477222E-04
 6.981400000000E+02  7.015196031986718E-03  1.189173449571048E-04
 6.981600000000E+02  7.032189712403429E-03  1.193966481380022E-04
 6.981800000000E+02  7.049109163416326E-03  1.198782590426305E-04
 6.982000000000E+02  7.065960925844411E-03  1.203622257116542E-04
 6.982200000000E+02  7.082751142951569E-03  1.208485948175645E-04
 6.982400000000E+02  7.099485591901291E-03  1.213374117949145E-04
 6.982600000000E+02  7.116169712310005E-03  1.218287209588310E-04
 6.982800000000E+02  7.132808632205299E-03  1.223225656130475E-04
 6.983000000000E+02  7.149407191659503E-03  1.228189881485596E-04
 6.983200000000E+02  7.165969964337051E-03  1.233180301338731E-04
 6.983400000000E+02  7.182501277166933E-03  1.238197323977018E-04
 6.983600000000E+02  7.199005228327410E-03  1.243241351048790E-04
 6.983800000000E+02  7.215485703709124E-03  1.248312778261566E-04
 6.984000000000E+02  7.231946392004509E-03  1.253411996024941E-04
 6.984200000000E+02  7.248390798555251E-03  1.258539390043734E-04
 6.984400000000E+02  7.264822258075176E-03  1.263695341866153E-04
 6.984600000000E+02  7.281243946353820E-03  1.268880229391277E-04
 6.984800000000E+02  7.297658891034440E-03  1.274094427339654E-04
 6.985000000000E+02  7.314069981550948E-03  1.279338307690456E-04
 6.985200000000E+02  7.330479978299299E-03  1.284612240088276E-04
 6.985400000000E+02  7.346891521111360E-03  1.289916592222313E-04
 6.985600000000E+02  7.363307137092464E-03  1.295251730180447E-04
 6.985800000000E+02  7.379729247877809E-03  1.300618018780459E-04
 6.986000000000E+02  7.396160176357534E-03  1.306015821880423E-04
 6.986200000000E+02  7.412602152915415E-03  1.311445502670075E-04
 6.986400000000E+02  7.429057321221858E-03  1.316907423944868E-04
 6.986600000000E+02  7.445527743618212E-03  1.322401948364180E-04
 6.986800000000E+02  7.462015406125664E-03  1.327929438695053E-04
 6.987000000000E+02  7.478522223109175E-03  1.333490258042708E-04
 6.987200000000E+02  7.495050041624106E-03  1.339084770068961E-04
 6.987400000000E+02  7.511600645470524E-03  1.344713339199572E-04
 6.987600000000E+02  7.528175758978190E-03  1.350376330821466E-04
 6.987800000000E+02  7.544777050543022E-03  1.356074111470683E-04
 6.988000000000E+02  7.561406135934137E-03  1.361807049011826E-04
 6.988200000000E+02  7.578064581388822E-03  1.367575512809758E-04
 6.988400000000E+02  7.594753906511447E-03  1.373379873894193E-04
 6.988600000000E+02  7.611475586990768E-03  1.379220505117739E-04
 6.988800000000E+02  7.628231057149101E-03  1.385097781308040E-04
 6.989000000000E+02  7.645021712335580E-03  1.391012079414437E-04
 6.989200000000E+02  7.661848911174744E-03  1.396963778649677E-04
 6.989400000000E+02  7.678713977680814E-03  1.402953260627086E-04
 6.989600000000E+02  7.695618203247145E-03  1.408980909493574E-04
 6.989800000000E+02  7.712562848519636E-03  1.415047112058924E-04
 6.990000000000E+02  7.729549145162181E-03  1.421152257921607E-04
 6.990200000000E+02  7.746578297521539E-03  1.427296739591525E-04
 6.990400000000E+02  7.763651484198575E-03  1.433480952609930E-04
 6.990600000000E+02  7.780769859532135E-03  1.439705295666797E-04
 6.990800000000E+02  7.797934555001463E-03  1.445970170715939E-04
 6.991000000000E+02  7.815146680552578E-03  1.452275983088056E-04
 6.991200000000E+02  7.832407325853614E-03  1.458623141601978E-04
 6.991400000000E+02  7.849717561483761E-03  1.465012058674286E-04
 6.991600000000E+02  7.867078440060224E-03  1.471443150427512E-04
 6.991800000000E+02  7.884490997307014E-03  1.477916836797131E-04
 6.992000000000E+02  7.901956253069468E-03  1.484433541637429E-04
 6.992200000000E+02  7.919475212277810E-03  1.490993692826539E-04
 6.992400000000E+02  7.937048865863090E-03  1.497597722370662E-04
 6.992600000000E+02  7.954678191628373E-03  1.504246066507737E-04
 6.992800000000E+02  7.972364155078000E-03  1.510939165810586E-04
 6.993000000000E+02  7.990107710207573E-03  1.517677465289746E-04
 6.993200000000E+02  8.007909800256927E-03  1.524461414496082E-04
 6.993400000000E+02  8.025771358428514E-03  1.531291467623282E-04
 6.993600000000E+02  8.043693308573210E-03  1.538168083610350E-04
 6.993800000000E+02  8.061676565845484E-03  1.545091726244251E-04
 6.994000000000E+02  8.079722037329798E-03  1.552062864262708E-04
 6.994200000000E+02  8.097830622640027E-03  1.559081971457367E-04
 6.994400000000E+02  8.116003214493401E-03  1.566149526777328E-04
 6.994600000000E+02  8.134240699260404E-03  1.573266014433182E-04
 6.994800000000E+02  8.152543957492346E-03  1.580431924001636E-04
 6.995000000000E+02  8.170913864427551E-03  1.587647750530790E-04
 6.995200000000E+02  8.189351290477681E-03  1.594913994646161E-04
 6.995400000000E+02  8.207857101695212E-03  1.602231162657549E-04
 6.995600000000E+02  8.226432160223172E-03  1.609599766666772E-04
 6.995800000000E+02  8.245077324728317E-03  1.617020324676421E-04
 6.996000000000E+02  8.263793450818398E-03  1.624493360699637E-04
 6.996200000000E+02  8.282581391444823E-03  1.632019404871016E-04
 6.996400000000E+02  8.301441997291197E-03  1.639598993558717E-04
 6.996600000000E+02  8.320376117148845E-03  1.647232669477828E-04
 6.996800000000E+02  8.339384598279879E-03  1.654920981805081E-04
 6.997000000000E+02  8.358468286768601E-03  1.662664486294933E-04
 6.997200000000E+02  8.377628027861956E-03  1.670463745397167E-04
 6.997400000000E+02  8.396864666299592E-03  1.678319328375988E-04
 6.997600000000E+02  8.416179046634192E-03  1.686231811430741E-04
 6.997800000000E+02  8.435572013542645E-03  1.694201777818298E-04
 6.998000000000E+02  8.455044412128564E-03  1.702229817977186E-04
 6.998200000000E+02  8.474597088216655E-03  1.710316529653500E-04
 6.998400000000E+02  8.494230888639561E-03  1.718462518028704E-04
 6.998600000000E+02  8.513946661517358E-03  1.726668395849363E-04
 6.998800000000E+02  8.533745256530450E-03  1.734934783558872E-04
 6.999000000000E+02  8.553627525186130E-03  1.743262309431262E-04
 6.999200000000E+02  8.573594321079125E-03  1.751651609707139E-04
 6.999400000000E+02  8.593646500146653E-03  1.760103328731835E-04
 6.999600000000E+02  8.613784920918261E-03  1.768618119095821E-04
 6.999800000000E+02  8.634010444760830E-03  1.777196641777485E-04
 7.000000000000E+02  8.654323936119002E-03  1.785839566288313E-04
 7.000200000000E+02  8.674726262751420E-03  1.794547570820545E-04
 7.000400000000E+02  8.695218295963029E-03  1.803321342397424E-04
 7.000600000000E+02  8.715800910833692E-03  1.812161577026044E-04
 7.000800000000E+02  8.736474986443454E-03  1.821068979852919E-04
 7.001000000000E+02  8.757241406094719E-03  1.830044265322342E-04
 7.001200000000E+02  8.778101057531507E-03  1.839088157337592E-04
 7.001400000000E+02  8.799054833156064E-03  1.848201389425088E-04
 7.001600000000E+02  8.820103630243104E-03  1.857384704901554E-04
 7.001800000000E+02  8.841248351151850E-03  1.866638857044299E-04
 7.002000000000E+02  8.862489903536041E-03  1.875964609264664E-04
 7.002200000000E+02  8.883829200552295E-03  1.885362735284751E-04
 7.002400000000E+02  8.905267161066700E-03  1.894834019317495E-04
 7.002600000000E+02  8.926804709860169E-03  1.904379256250197E-04
 7.002800000000E+02  8.948442777832556E-03  1.913999251831573E-04
 7.003000000000E+02  8.970182302205663E-03  1.923694822862440E-04
 7.003200000000E+02  8.992024226725407E-03  1.933466797390126E-04
 7.003400000000E+02  9.013969501863398E-03  1.943316014906691E-04
 7.003600000000E+02  9.036019085017787E-03  1.953243326551072E-04
 7.003800000000E+02  9.058173940713947E-03  1.963249595315247E-04
 7.004000000000E+02  9.080435040804736E-03  1.973335696254512E-04
 7.004200000000E+02  9.102803364670734E-03  1.983502516702017E-04
 7.004400000000E+02  9.125279899420696E-03  1.993750956487595E-04
 7.004600000000E+02  9.147865640091906E-03  2.004081928161097E-04
 7.004800000000E+02  9.170561589851177E-03  2.014496357220246E-04
 7.005000000000E+02  9.193368760196115E-03  2.024995182343213E-04
 7.005200000000E+02  9.216288171157154E-03  2.035579355625973E-04
 7.005400000000E+02  9.239320851500161E-03  2.046249842824604E-04
 7.005600000000E+02  9.262467838930062E-03  2.057007623602652E-04
 7.005800000000E+02  9.285730180295413E-03  2.067853691783656E-04
 7.006000000000E+02  9.309108931794008E-03  2.078789055609038E-04
 7.006200000000E+02  9.332605159179923E-03  2.089814738001425E-04
 7.006400000000E+02  9.356219937971684E-03  2.100931776833584E-04
 7.006600000000E+02  9.379954353662161E-03  2.112141225203121E-04
 7.006800000000E+02  9.403809501929844E-03  2.123444151713062E-04
 7.007000000000E+02  9.427786488852083E-03  2.134841640758502E-04
 7.007200000000E+02  9.451886431119952E-03  2.146334792819469E-04
 7.007400000000E+02  9.476110456255165E-03  2.157924724760174E-04
 7.007600000000E+02  9.500459702829192E-03  2.169612570134784E-04
 7.007800000000E+02  9.524935320684304E-03  2.181399479499947E-04
 7.008000000000E+02  9.549538471157209E-03  2.193286620734201E-04
 7.008200000000E+02  9.574270327304991E-03  2.205275179364457E-04
 7.008400000000E+02  9.599132074133513E-03  2.217366358899777E-04
 7.008600000000E+02  9.624124908828732E-03  2.229561381172602E-04
 7.008800000000E+02  9.649250040990561E-03  2.241861486687639E-04
 7.009000000000E+02  9.674508692869793E-03  2.254267934978660E-04
 7.009200000000E+02  9.699902099607954E-03  2.266782004973331E-04
 7.009400000000E+02  9.725431509480438E-03  2.279404995366399E-04
 7.009600000000E+02  9.751098184142744E-03  2.292138225001380E-04
 7.009800000000E+02  9.776903398880257E-03  2.304983033261019E-04
 7.010000000000E+02  9.802848442861490E-03  2.317940780466761E-04
 7.010200000000E+02  9.828934619394944E-03  2.331012848287457E-04
 7.010400000000E+02  9.855163246189859E-03  2.344200640157605E-04
 7.010600000000E+02  9.881535655620700E-03  2.357505581705335E-04
 7.010800000000E+02  9.908053194995809E-03  2.370929121190440E-04
 7.011000000000E+02  9.934717226830340E-03  2.384472729952748E-04
 7.011200000000E+02  9.961529129123129E-03  2.398137902871093E-04
 7.011400000000E+02  9.988490295638410E-03  2.411926158833176E-04
 7.011600000000E+02  1.001560213619192E-02  2.425839041216684E-04
 7.011800000000E+02  1.004286607694178E-02  2.439878118381908E-04
 7.012000000000E+02  1.007028356068422E-02  2.454044984176243E-04
 7.012200000000E+02  1.009785604715441E-02  2.468341258450872E-04
 7.012400000000E+02  1.012558501333239E-02  2.482768587590035E-04
 7.012600000000E+02  1.015347195375438E-02  2.497328645053173E-04
 7.012800000000E+02  1.018151838082956E-02  2.512023131930368E-04
 7.013000000000E+02  1.020972582516250E-02  2.526853777511477E-04
 7.013200000000E+02  1.023809583588150E-02  2.541822339869306E-04
 7.013400000000E+02  1.026662998097276E-02  2.556930606457288E-04
 7.013600000000E+02  1.029532984762083E-02  2.572180394722036E-04
 7.013800000000E+02  1.032419704255539E-02  2.587573552731301E-04
 7.014000000000E+02  1.035323319240450E-02  2.603111959817655E-04
 7.014200000000E+02  1.038243994405459E-02  2.618797527238535E-04
 7.014400000000E+02  1.041181896501742E-02  2.634632198852955E-04
 7.014600000000E+02  1.044137194380391E-02  2.650617951815549E-04
 7.014800000000E+02  1.047110059030560E-02  2.666756797288378E-04
 7.015000000000E+02  1.050100663618331E-02  2.683050781171032E-04
 7.015200000000E+02  1.053109183526366E-02  2.699501984849656E-04
 7.015400000000E+02  1.056135796394348E-02  2.716112525965407E-04
 7.015600000000E+02  1.059180682160244E-02  2.732884559202963E-04
 7.015800000000E+02  1.062244023102398E-02  2.749820277099727E-04
 7.016000000000E+02  1.065326003882483E-02  2.766921910876323E-04
 7.016200000000E+02  1.068426811589354E-02  2.784191731289087E-04
 7.016400000000E+02  1.071546635783797E-02  2.801632049505217E-04
 7.016600000000E+02  1.074685668544221E-02  2.819245218001301E-04
 7.016800000000E+02  1.077844104513314E-02  2.837033631485974E-04
 7.017000000000E+02  1.081022140945685E-02  2.854999727847447E-04
 7.017200000000E+02  1.084219977756527E-02  2.873145989126704E-04
 7.017400000000E+02  1.087437817571330E-02  2.891474942517226E-04
 7.017600000000E+02  1.090675865776664E-02  2.909989161392050E-04
 7.017800000000E+02  1.093934330572068E-02  2.928691266359055E-04
 7.018000000000E+02  1.097213423023090E-02  2.947583926345434E-04
 7.018200000000E+02  1.100513357115484E-02  2.966669859712249E-04
 7.018400000000E+02  1.103834349810624E-02  2.985951835400089E-04
 7.018600000000E+02  1.107176621102141E-02  3.005432674106872E-04
 7.018800000000E+02  1.110540394073853E-02  3.025115249498805E-04
 7.019000000000E+02  1.113925894958995E-02  3.045002489455667E-04
 7.019200000000E+02  1.117333353200805E-02  3.065097377351508E-04
 7.019400000000E+02  1.120763001514488E-02  3.085402953372026E-04
 7.019600000000E+02  1.124215075950623E-02  3.105922315869801E-04
 7.019800000000E+02  1.127689815960039E-02  3.126658622758680E-04
 7.020000000000E+02  1.131187464460186E-02  3.147615092948706E-04
 7.020200000000E+02  1.134708267903092E-02  3.168795007822923E-04
 7.020400000000E+02  1.138252476344915E-02  3.190201712757546E-04
 7.020600000000E+02  1.141820343517128E-02  3.211838618686959E-04
 7.020800000000E+02  1.145412126899440E-02  3.233709203715179E-04
 7.021000000000E+02  1.149028087794442E-02  3.255817014775333E-04
 7.021200000000E+02  1.152668491404068E-02  3.278165669338913E-04
 7.021400000000E+02  1.156333606907926E-02  3.300758857176498E-04
 7.021600000000E+02  1.160023707543517E-02  3.323600342171924E-04
 7.021800000000E+02  1.163739070688459E-02  3.346693964191611E-04
 7.022000000000E+02  1.167479977944732E-02  3.370043641011243E-04
 7.022200000000E+02  1.171246715225017E-02  3.393653370301734E-04
 7.022400000000E+02  1.175039572841198E-02  3.417527231676745E-04
 7.022600000000E+02  1.178858845595106E-02  3.441669388803916E-04
 7.022800000000E+02  1.182704832871538E-02  3.466084091582278E-04
 7.023000000000E+02  1.186577838733673E-02  3.490775678388174E-04
 7.023200000000E+02  1.190478172020910E-02  3.515748578392358E-04
 7.023400000000E+02  1.194406146449240E-02  3.541007313950865E-04
 7.023600000000E+02  1.198362080714223E-02  3.566556503072497E-04
 7.023800000000E+02  1.202346298596643E-02  3.592400861965779E-04
 7.024000000000E+02  1.206359129070932E-02  3.618545207668468E-04
 7.024200000000E+02  1.210400906416475E-02  3.644994460762774E-04
 7.024400000000E+02  1.214471970331846E-02  3.671753648179555E-04
 7.024600000000E+02  1.218572666052106E-02  3.698827906095051E-04
 7.024800000000E+02  1.222703344469254E-02  3.726222482923679E-04
 7.025000000000E+02  1.226864362255921E-02  3.753942742410716E-04
 7.025200000000E+02  1.231056081992450E-02  3.781994166828810E-04
 7.025400000000E+02  1.235278872297415E-02  3.810382360282461E-04
 7.025600000000E+02  1.239533107961772E-02  3.839113052124835E-04
 7.025800000000E+02  1.243819170086693E-02  3.868192100491319E-04
 7.026000000000E+02  1.248137446225246E-02  3.897625495954747E-04
 7.026200000000E+02  1.252488330528054E-02  3.927419365307075E-04
 7.026400000000E+02  1.256872223893049E-02  3.957579975472816E-04
 7.026600000000E+02  1.261289534119476E-02  3.988113737559675E-04
 7.026800000000E+02  1.265740676066299E-02  4.019027211052000E-04
 7.027000000000E+02  1.270226071815149E-02  4.050327108153203E-04
 7.027200000000E+02  1.274746150837973E-02  4.082020298283216E-04
 7.027400000000E+02  1.279301350169585E-02  4.114113812737786E-04
 7.027600000000E+02  1.283892114585227E-02  4.146614849516278E-04
 7.027800000000E+02  1.288518896783399E-02  4.179530778325509E-04
 7.028000000000E+02  1.293182157574073E-02  4.212869145766919E-04
 7.028200000000E+02  1.297882366072549E-02  4.246637680715371E-04
 7.028400000000E+02  1.302619999899107E-02  4.280844299897734E-04
 7.028600000000E+02  1.307395545384710E-02  4.315497113680236E-04
 7.028800000000E+02  1.312209497782942E-02  4.350604432073764E-04
 7.029000000000E+02  1.317062361488465E-02  4.386174770966934E-04
 7.029200000000E+02  1.321954650262169E-02  4.422216858597164E-04
 7.029400000000E+02  1.326886887463341E-02  4.458739642270534E-04
